# Pulseq sequence file
# Created by PyPulseq

[VERSION]
major 1
minor 4
revision 0

[DEFINITIONS]
AdcRasterTime 1e-07 
BlockDurationRaster 1e-05 
FOV 0.22 0.22 0.004 
GradientRasterTime 1e-05 
Name epi 
RadiofrequencyRasterTime 1e-06 
TotalDuration 0.07165 

# Format of blocks:
# NUM DUR RF  GX  GY  GZ  ADC  EXT
[BLOCKS]
  1 268   1   0   0   1  0  0
  2  63   0   2   3   4  0  0
  3 108   0   5   0   0  1  0
  4   6   0   0   6   0  0  0
  5 108   0   7   0   0  1  0
  6   6   0   0   6   0  0  0
  7 108   0   5   0   0  1  0
  8   6   0   0   6   0  0  0
  9 108   0   7   0   0  1  0
 10   6   0   0   6   0  0  0
 11 108   0   5   0   0  1  0
 12   6   0   0   6   0  0  0
 13 108   0   7   0   0  1  0
 14   6   0   0   6   0  0  0
 15 108   0   5   0   0  1  0
 16   6   0   0   6   0  0  0
 17 108   0   7   0   0  1  0
 18   6   0   0   6   0  0  0
 19 108   0   5   0   0  1  0
 20   6   0   0   6   0  0  0
 21 108   0   7   0   0  1  0
 22   6   0   0   6   0  0  0
 23 108   0   5   0   0  1  0
 24   6   0   0   6   0  0  0
 25 108   0   7   0   0  1  0
 26   6   0   0   6   0  0  0
 27 108   0   5   0   0  1  0
 28   6   0   0   6   0  0  0
 29 108   0   7   0   0  1  0
 30   6   0   0   6   0  0  0
 31 108   0   5   0   0  1  0
 32   6   0   0   6   0  0  0
 33 108   0   7   0   0  1  0
 34   6   0   0   6   0  0  0
 35 108   0   5   0   0  1  0
 36   6   0   0   6   0  0  0
 37 108   0   7   0   0  1  0
 38   6   0   0   6   0  0  0
 39 108   0   5   0   0  1  0
 40   6   0   0   6   0  0  0
 41 108   0   7   0   0  1  0
 42   6   0   0   6   0  0  0
 43 108   0   5   0   0  1  0
 44   6   0   0   6   0  0  0
 45 108   0   7   0   0  1  0
 46   6   0   0   6   0  0  0
 47 108   0   5   0   0  1  0
 48   6   0   0   6   0  0  0
 49 108   0   7   0   0  1  0
 50   6   0   0   6   0  0  0
 51 108   0   5   0   0  1  0
 52   6   0   0   6   0  0  0
 53 108   0   7   0   0  1  0
 54   6   0   0   6   0  0  0
 55 108   0   5   0   0  1  0
 56   6   0   0   6   0  0  0
 57 108   0   7   0   0  1  0
 58   6   0   0   6   0  0  0
 59 108   0   5   0   0  1  0
 60   6   0   0   6   0  0  0
 61 108   0   7   0   0  1  0
 62   6   0   0   6   0  0  0
 63 108   0   5   0   0  1  0
 64   6   0   0   6   0  0  0
 65 108   0   7   0   0  1  0
 66   6   0   0   6   0  0  0
 67 108   0   5   0   0  1  0
 68   6   0   0   6   0  0  0
 69 108   0   7   0   0  1  0
 70   6   0   0   6   0  0  0
 71 108   0   5   0   0  1  0
 72   6   0   0   6   0  0  0
 73 108   0   7   0   0  1  0
 74   6   0   0   6   0  0  0
 75 108   0   5   0   0  1  0
 76   6   0   0   6   0  0  0
 77 108   0   7   0   0  1  0
 78   6   0   0   6   0  0  0
 79 108   0   5   0   0  1  0
 80   6   0   0   6   0  0  0
 81 108   0   7   0   0  1  0
 82   6   0   0   6   0  0  0
 83 108   0   5   0   0  1  0
 84   6   0   0   6   0  0  0
 85 108   0   7   0   0  1  0
 86   6   0   0   6   0  0  0
 87 108   0   5   0   0  1  0
 88   6   0   0   6   0  0  0
 89 108   0   7   0   0  1  0
 90   6   0   0   6   0  0  0
 91 108   0   5   0   0  1  0
 92   6   0   0   6   0  0  0
 93 108   0   7   0   0  1  0
 94   6   0   0   6   0  0  0
 95 108   0   5   0   0  1  0
 96   6   0   0   6   0  0  0
 97 108   0   7   0   0  1  0
 98   6   0   0   6   0  0  0
 99 108   0   5   0   0  1  0
100   6   0   0   6   0  0  0
101 108   0   7   0   0  1  0
102   6   0   0   6   0  0  0
103 108   0   5   0   0  1  0
104   6   0   0   6   0  0  0
105 108   0   7   0   0  1  0
106   6   0   0   6   0  0  0
107 108   0   5   0   0  1  0
108   6   0   0   6   0  0  0
109 108   0   7   0   0  1  0
110   6   0   0   6   0  0  0
111 108   0   5   0   0  1  0
112   6   0   0   6   0  0  0
113 108   0   7   0   0  1  0
114   6   0   0   6   0  0  0
115 108   0   5   0   0  1  0
116   6   0   0   6   0  0  0
117 108   0   7   0   0  1  0
118   6   0   0   6   0  0  0
119 108   0   5   0   0  1  0
120   6   0   0   6   0  0  0
121 108   0   7   0   0  1  0

# Format of RF events:
# id amplitude mag_id phase_id time_shape_id delay freq phase
# ..        Hz   ....     ....          ....    us   Hz   rad
[RF]
1      394.982 1 2 0 100 0 0

# Format of trapezoid gradients:
# id amplitude rise flat fall delay
# ..      Hz/m   us   us   us    us
[TRAP]
 1       400000  80 2500  80  20
 2      -314970 170  290 170   0
 3       280464 160  310 160   0
 4 -1.35789e+06 250  130 250   0
 5       284091  60  960  60   0
 6      -151515  30    0  30   0
 7      -284091  60  960  60   0

# Format of ADC events:
# id num dwell delay freq phase
# ..  ..    ns    us   Hz   rad
[ADC]
1 60 16000 60 0 0

# Sequence Shapes
[SHAPES]

shape_id 1
num_samples 2500
1.57976903e-10
4.26875233e-09
1.97782093e-08
5.43134016e-08
1.15524076e-07
2.11082041e-07
3.48680538e-07
5.36033601e-07
7.8087542e-07
1.0909597e-06
1.47405902e-06
1.93796417e-06
2.49048354e-06
3.13944243e-06
3.89268239e-06
4.75806061e-06
5.74344921e-06
6.85673462e-06
8.10581688e-06
9.49860898e-06
1.10430362e-05
1.27470355e-05
1.46185547e-05
1.66655519e-05
1.88959948e-05
2.13178601e-05
2.39391324e-05
2.67678044e-05
2.9811875e-05
3.30793498e-05
3.65782395e-05
4.03165599e-05
4.43023306e-05
4.85435747e-05
5.3048318e-05
5.78245882e-05
6.28804145e-05
6.82238264e-05
7.38628534e-05
7.98055242e-05
8.60598659e-05
9.26339033e-05
9.95356584e-05
0.000106773149
0.00011435439
0.000122287389
0.000130580148
0.000139240666
0.000148276929
0.000157696921
0.000167508611
0.000177719965
0.000188338933
0.000199373458
0.000210831471
0.000222720888
0.000235049614
0.000247825541
0.000261056544
0.000274750485
0.000288915208
0.000303558542
0.000318688297
0.000334312266
0.000350438223
0.00036707392
0.000384227091
0.00040190545
0.000420116685
0.000438868464
0.000458168432
0.000478024208
0.000498443388
0.000519433541
0.00054100221
0.000563156911
0.000585905132
0.000609254334
0.000633211945
0.000657785366
0.000682981967
0.000708809084
0.000735274025
0.000762384059
0.000790146428
0.000818568333
0.000847656944
0.000877419394
0.000907862779
0.000938994156
0.000970820547
0.00100334893
0.00103658625
0.00107053941
0.00110521526
0.00114062063
0.00117676229
0.00121364697
0.00125128135
0.00128967209
0.00132882578
0.00136874897
0.00140944815
0.0014509298
0.00149320031
0.00153626605
0.00158013332
0.00162480838
0.00167029743
0.00171660663
0.00176374208
0.00181170982
0.00186051586
0.00191016612
0.00196066649
0.00201202279
0.00206424079
0.00211732621
0.00217128468
0.00222612182
0.00228184314
0.00233845412
0.00239596017
0.00245436663
0.0025136788
0.00257390189
0.00263504106
0.0026971014
0.00276008794
0.00282400563
0.00288885938
0.002954654
0.00302139426
0.00308908483
0.00315773035
0.00322733535
0.00329790431
0.00336944164
0.00344195167
0.00351543866
0.00358990679
0.00366536017
0.00374180285
0.00381923877
0.00389767183
0.00397710582
0.00405754448
0.00413899146
0.00422145033
0.00430492458
0.00438941762
0.00447493278
0.00456147331
0.00464904237
0.00473764306
0.00482727837
0.00491795121
0.00500966443
0.00510242075
0.00519622285
0.0052910733
0.00538697459
0.0054839291
0.00558193917
0.00568100699
0.00578113472
0.00588232439
0.00598457795
0.00608789726
0.00619228409
0.00629774012
0.00640426694
0.00651186602
0.00662053877
0.00673028648
0.00684111037
0.00695301155
0.00706599102
0.00718004971
0.00729518843
0.00741140791
0.00752870877
0.00764709154
0.00776655664
0.0078871044
0.00800873504
0.00813144869
0.00825524536
0.00838012499
0.00850608739
0.00863313228
0.00876125926
0.00889046784
0.00902075744
0.00915212735
0.00928457676
0.00941810476
0.00955271034
0.00968839236
0.00982514961
0.00996298073
0.0101018843
0.0102418587
0.0103829024
0.0105250135
0.0106681901
0.0108124303
0.010957732
0.0111040929
0.0112515108
0.0113999831
0.0115495073
0.0117000809
0.0118517009
0.0120043646
0.0121580688
0.0123128106
0.0124685867
0.0126253936
0.0127832281
0.0129420864
0.0131019649
0.0132628599
0.0134247673
0.0135876832
0.0137516034
0.0139165236
0.0140824394
0.0142493464
0.0144172398
0.014586115
0.0147559672
0.0149267912
0.0150985821
0.0152713346
0.0154450433
0.0156197029
0.0157953076
0.015971852
0.01614933
0.0163277358
0.0165070634
0.0166873065
0.0168684588
0.017050514
0.0172334654
0.0174173064
0.0176020303
0.01778763
0.0179740987
0.018161429
0.0183496138
0.0185386456
0.0187285169
0.0189192201
0.0191107474
0.0193030909
0.0194962426
0.0196901943
0.0198849378
0.0200804647
0.0202767665
0.0204738345
0.02067166
0.020870234
0.0210695477
0.0212695918
0.0214703572
0.0216718343
0.0218740138
0.0220768859
0.022280441
0.0224846691
0.0226895603
0.0228951043
0.0231012911
0.0233081101
0.023515551
0.023723603
0.0239322554
0.0241414974
0.0243513179
0.0245617058
0.02477265
0.0249841389
0.0251961612
0.0254087051
0.025621759
0.0258353111
0.0260493492
0.0262638613
0.0264788352
0.0266942584
0.0269101186
0.0271264031
0.0273430992
0.0275601941
0.0277776747
0.0279955279
0.0282137406
0.0284322995
0.0286511909
0.0288704015
0.0290899174
0.0293097248
0.0295298098
0.0297501584
0.0299707563
0.0301915892
0.0304126427
0.0306339022
0.0308553532
0.0310769807
0.0312987699
0.0315207058
0.0317427732
0.0319649568
0.0321872413
0.0324096112
0.0326320508
0.0328545445
0.0330770763
0.0332996304
0.0335221905
0.0337447406
0.0339672644
0.0341897453
0.0344121668
0.0346345124
0.0348567651
0.0350789082
0.0353009246
0.0355227973
0.0357445089
0.0359660423
0.0361873798
0.036408504
0.0366293972
0.0368500416
0.0370704194
0.0372905125
0.0375103028
0.0377297721
0.0379489021
0.0381676744
0.0383860703
0.0386040714
0.0388216588
0.0390388137
0.039255517
0.0394717499
0.039687493
0.0399027271
0.0401174329
0.0403315908
0.0405451813
0.0407581847
0.0409705812
0.041182351
0.041393474
0.0416039303
0.0418136995
0.0420227615
0.0422310958
0.042438682
0.0426454996
0.0428515278
0.043056746
0.0432611332
0.0434646686
0.0436673311
0.0438690995
0.0440699527
0.0442698694
0.0444688281
0.0446668074
0.0448637857
0.0450597413
0.0452546525
0.0454484975
0.0456412543
0.0458329009
0.0460234152
0.0462127751
0.0464009583
0.0465879425
0.0467737052
0.046958224
0.0471414762
0.0473234392
0.0475040902
0.0476834065
0.0478613652
0.0480379432
0.0482131176
0.0483868652
0.0485591629
0.0487299873
0.0488993151
0.049067123
0.0492333875
0.0493980849
0.0495611917
0.0497226843
0.0498825388
0.0500407314
0.0501972383
0.0503520356
0.0505050992
0.050656405
0.0508059289
0.0509536468
0.0510995343
0.0512435672
0.0513857211
0.0515259716
0.0516642942
0.0518006643
0.0519350574
0.0520674488
0.0521978139
0.0523261278
0.0524523658
0.0525765031
0.0526985147
0.0528183758
0.0529360612
0.053051546
0.0531648051
0.0532758134
0.0533845457
0.0534909768
0.0535950815
0.0536968344
0.0537962103
0.0538931838
0.0539877294
0.0540798218
0.0541694355
0.0542565449
0.0543411246
0.0544231489
0.0545025924
0.0545794292
0.0546536339
0.0547251807
0.0547940438
0.0548601977
0.0549236164
0.0549842743
0.0550421455
0.0550972042
0.0551494246
0.0551987808
0.0552452469
0.055288797
0.0553294052
0.0553670457
0.0554016923
0.0554333193
0.0554619006
0.0554874103
0.0555098224
0.0555291109
0.0555452498
0.0555582131
0.0555679749
0.055574509
0.0555777895
0.0555777905
0.0555744858
0.0555678495
0.0555578555
0.055544478
0.0555276908
0.055507468
0.0554837836
0.0554566116
0.0554259261
0.0553917012
0.0553539108
0.0553125291
0.0552675301
0.055218888
0.0551665768
0.0551105707
0.0550508439
0.0549873706
0.0549201248
0.0548490809
0.0547742132
0.0546954957
0.054612903
0.0545264093
0.0544359888
0.0543416162
0.0542432656
0.0541409116
0.0540345287
0.0539240914
0.0538095742
0.0536909517
0.0535681986
0.0534412894
0.053310199
0.053174902
0.0530353732
0.0528915875
0.0527435198
0.052591145
0.052434438
0.0522733739
0.0521079278
0.0519380747
0.0517637899
0.0515850486
0.0514018261
0.0512140977
0.0510218388
0.050825025
0.0506236316
0.0504176344
0.0502070089
0.0499917308
0.049771776
0.0495471203
0.0493177395
0.0490836097
0.048844707
0.0486010073
0.048352487
0.0480991223
0.0478408895
0.047577765
0.0473097254
0.0470367472
0.0467588071
0.0464758818
0.0461879481
0.045894983
0.0455969633
0.0452938663
0.0449856689
0.0446723486
0.0443538826
0.0440302483
0.0437014233
0.0433673852
0.0430281117
0.0426835806
0.0423337697
0.0419786572
0.0416182211
0.0412524395
0.0408812908
0.0405047535
0.0401228059
0.0397354267
0.0393425947
0.0389442886
0.0385404875
0.0381311702
0.0377163161
0.0372959043
0.0368699143
0.0364383256
0.0360011177
0.0355582704
0.0351097635
0.0346555771
0.0341956912
0.033730086
0.0332587419
0.0327816392
0.0322987587
0.031810081
0.031315587
0.0308152576
0.0303090739
0.0297970172
0.0292790688
0.0287552102
0.028225423
0.0276896891
0.0271479902
0.0266003086
0.0260466262
0.0254869256
0.024921189
0.0243493992
0.0237715388
0.0231875909
0.0225975383
0.0220013643
0.0213990523
0.0207905856
0.020175948
0.0195551232
0.0189280952
0.0182948481
0.017655366
0.0170096335
0.016357635
0.0156993552
0.0150347792
0.0143638918
0.0136866782
0.0130031239
0.0123132144
0.0116169353
0.0109142724
0.0102052119
0.00948973982
0.00876784257
0.00803950667
0.00730471879
0.0065634658
0.00581573473
0.00506151278
0.00430078734
0.00353354594
0.00275977634
0.00197946642
0.00119260427
0.00039917816
0.000400823472
0.001207412
0.00202059863
0.00284039436
0.00366681003
0.00449985627
0.00533954356
0.00618588216
0.00703888216
0.00789855346
0.00876490576
0.00963794859
0.0105176913
0.0114041429
0.0122973125
0.0131972088
0.0141038403
0.0150172155
0.0159373424
0.016864229
0.0177978832
0.0187383124
0.0196855241
0.0206395254
0.0216003233
0.0225679246
0.0235423358
0.0245235634
0.0255116134
0.0265064918
0.0275082045
0.0285167568
0.0295321542
0.0305544018
0.0315835046
0.0326194671
0.033662294
0.0347119895
0.0357685578
0.0368320026
0.0379023276
0.0389795363
0.0400636319
0.0411546175
0.0422524957
0.0433572693
0.0444689405
0.0455875115
0.0467129843
0.0478453605
0.0489846417
0.0501308291
0.0512839238
0.0524439266
0.0536108381
0.0547846587
0.0559653885
0.0571530276
0.0583475756
0.059549032
0.0607573961
0.0619726669
0.0631948433
0.0644239238
0.0656599068
0.0669027904
0.0681525726
0.069409251
0.070672823
0.0719432859
0.0732206367
0.0745048722
0.0757959888
0.0770939828
0.0783988504
0.0797105873
0.0810291892
0.0823546515
0.0836869692
0.0850261372
0.0863721503
0.0877250028
0.0890846891
0.0904512029
0.0918245381
0.0932046881
0.0945916463
0.0959854055
0.0973859587
0.0987932983
0.100207417
0.101628306
0.103055958
0.104490364
0.105931516
0.107379404
0.10883402
0.110295354
0.111763397
0.113238139
0.11471957
0.116207679
0.117702455
0.119203889
0.120711969
0.122226684
0.123748022
0.125275971
0.12681052
0.128351656
0.129899367
0.131453639
0.133014461
0.134581819
0.136155699
0.137736088
0.139322972
0.140916336
0.142516166
0.144122448
0.145735167
0.147354307
0.148979853
0.15061179
0.152250102
0.153894772
0.155545784
0.157203122
0.158866768
0.160536707
0.16221292
0.163895389
0.165584098
0.167279028
0.168980161
0.170687477
0.17240096
0.174120589
0.175846345
0.177578209
0.179316161
0.181060181
0.18281025
0.184566345
0.186328448
0.188096537
0.18987059
0.191650587
0.193436506
0.195228324
0.197026021
0.198829573
0.200638958
0.202454153
0.204275135
0.206101881
0.207934368
0.209772571
0.211616466
0.21346603
0.215321238
0.217182066
0.219048487
0.220920478
0.222798012
0.224681065
0.22656961
0.228463621
0.230363073
0.232267938
0.234178189
0.2360938
0.238014744
0.239940992
0.241872518
0.243809293
0.24575129
0.24769848
0.249650834
0.251608323
0.253570919
0.255538592
0.257511313
0.259489053
0.26147178
0.263459465
0.265452078
0.267449588
0.269451965
0.271459176
0.273471192
0.27548798
0.277509509
0.279535747
0.281566662
0.283602222
0.285642393
0.287687144
0.289736441
0.291790251
0.293848542
0.295911278
0.297978427
0.300049954
0.302125825
0.304206006
0.306290462
0.308379158
0.31047206
0.312569132
0.314670338
0.316775643
0.318885011
0.320998406
0.323115792
0.325237133
0.327362391
0.329491529
0.331624512
0.333761301
0.33590186
0.338046149
0.340194133
0.342345772
0.344501029
0.346659865
0.348822242
0.35098812
0.353157462
0.355330227
0.357506377
0.359685871
0.361868671
0.364054737
0.366244028
0.368436504
0.370632124
0.37283085
0.375032638
0.37723745
0.379445242
0.381655975
0.383869607
0.386086096
0.388305401
0.390527479
0.392752288
0.394979787
0.397209932
0.399442681
0.401677992
0.403915821
0.406156126
0.408398862
0.410643988
0.412891458
0.41514123
0.41739326
0.419647503
0.421903915
0.424162453
0.426423071
0.428685725
0.430950371
0.433216963
0.435485457
0.437755806
0.440027967
0.442301893
0.444577538
0.446854858
0.449133806
0.451414336
0.453696402
0.455979958
0.458264958
0.460551354
0.4628391
0.46512815
0.467418456
0.469709972
0.47200265
0.474296443
0.476591304
0.478887185
0.481184038
0.483481817
0.485780472
0.488079956
0.490380221
0.492681219
0.494982902
0.49728522
0.499588126
0.501891571
0.504195506
0.506499882
0.508804651
0.511109764
0.513415171
0.515720823
0.518026671
0.520332666
0.522638758
0.524944898
0.527251035
0.529557121
0.531863105
0.534168937
0.536474568
0.538779948
0.541085026
0.543389752
0.545694076
0.547997947
0.550301316
0.552604131
0.554906343
0.5572079
0.559508751
0.561808847
0.564108136
0.566406567
0.56870409
0.571000653
0.573296205
0.575590696
0.577884074
0.580176288
0.582467287
0.584757019
0.587045433
0.589332478
0.591618102
0.593902253
0.596184882
0.598465934
0.600745361
0.603023108
0.605299126
0.607573362
0.609845764
0.612116282
0.614384862
0.616651454
0.618916005
0.621178464
0.623438778
0.625696897
0.627952768
0.630206339
0.632457559
0.634706374
0.636952735
0.639196588
0.641437881
0.643676564
0.645912583
0.648145887
0.650376424
0.652604142
0.654828989
0.657050913
0.659269863
0.661485786
0.66369863
0.665908344
0.668114875
0.670318173
0.672518184
0.674714858
0.676908142
0.679097985
0.681284335
0.683467141
0.68564635
0.68782191
0.689993771
0.692161881
0.694326188
0.696486641
0.698643188
0.700795778
0.702944359
0.705088881
0.707229291
0.709365538
0.711497572
0.713625341
0.715748795
0.717867881
0.719982549
0.722092749
0.724198429
0.726299538
0.728396026
0.730487842
0.732574935
0.734657256
0.736734752
0.738807375
0.740875074
0.742937798
0.744995497
0.747048121
0.749095621
0.751137946
0.753175046
0.755206872
0.757233373
0.759254501
0.761270206
0.763280439
0.765285149
0.767284288
0.769277807
0.771265657
0.773247788
0.775224153
0.777194702
0.779159386
0.781118157
0.783070968
0.785017768
0.786958511
0.788893149
0.790821632
0.792743914
0.794659947
0.796569682
0.798473074
0.800370073
0.802260634
0.804144709
0.806022251
0.807893212
0.809757548
0.81161521
0.813466153
0.81531033
0.817147695
0.818978202
0.820801805
0.822618458
0.824428116
0.826230733
0.828026264
0.829814664
0.831595888
0.833369891
0.835136628
0.836896055
0.838648128
0.840392801
0.842130031
0.843859775
0.845581987
0.847296626
0.849003647
0.850703007
0.852394663
0.854078573
0.855754693
0.85742298
0.859083393
0.860735889
0.862380427
0.864016964
0.865645458
0.867265869
0.868878154
0.870482274
0.872078186
0.87366585
0.875245225
0.876816272
0.87837895
0.879933218
0.881479038
0.883016369
0.884545173
0.886065409
0.88757704
0.889080025
0.890574328
0.892059908
0.893536728
0.895004751
0.896463938
0.897914251
0.899355654
0.900788109
0.90221158
0.903626029
0.90503142
0.906427717
0.907814884
0.909192885
0.910561684
0.911921246
0.913271536
0.914612519
0.915944161
0.917266425
0.91857928
0.91988269
0.921176621
0.92246104
0.923735915
0.925001211
0.926256895
0.927502936
0.928739301
0.929965957
0.931182873
0.932390018
0.933587358
0.934774865
0.935952506
0.937120251
0.938278069
0.939425931
0.940563806
0.941691665
0.942809478
0.943917216
0.945014851
0.946102352
0.947179693
0.948246845
0.949303779
0.950350469
0.951386887
0.952413006
0.953428799
0.954434239
0.955429301
0.956413957
0.957388182
0.958351951
0.959305239
0.960248019
0.961180269
0.962101962
0.963013076
0.963913585
0.964803467
0.965682698
0.966551255
0.967409114
0.968256255
0.969092653
0.969918288
0.970733138
0.97153718
0.972330394
0.97311276
0.973884255
0.974644861
0.975394557
0.976133323
0.976861141
0.977577989
0.978283851
0.978978706
0.979662538
0.980335327
0.980997056
0.981647708
0.982287265
0.982915711
0.983533029
0.984139202
0.984734215
0.985318052
0.985890697
0.986452135
0.987002352
0.987541333
0.988069063
0.98858553
0.989090718
0.989584615
0.990067208
0.990538483
0.990998429
0.991447033
0.991884284
0.992310169
0.992724678
0.993127799
0.993519523
0.993899837
0.994268733
0.994626201
0.994972231
0.995306814
0.995629941
0.995941604
0.996241794
0.996530503
0.996807724
0.99707345
0.997327672
0.997570386
0.997801583
0.998021259
0.998229406
0.998426021
0.998611096
0.998784629
0.998946613
0.999097045
0.999235921
0.999363236
0.999478988
0.999583174
0.999675791
0.999756835
0.999826306
0.999884202
0.99993052
0.999965259
0.99998842
1
1
0.99998842
0.999965259
0.99993052
0.999884202
0.999826306
0.999756835
0.999675791
0.999583174
0.999478988
0.999363236
0.999235921
0.999097045
0.998946613
0.998784629
0.998611096
0.998426021
0.998229406
0.998021259
0.997801583
0.997570386
0.997327672
0.99707345
0.996807724
0.996530503
0.996241794
0.995941604
0.995629941
0.995306814
0.994972231
0.994626201
0.994268733
0.993899837
0.993519523
0.993127799
0.992724678
0.992310169
0.991884284
0.991447033
0.990998429
0.990538483
0.990067208
0.989584615
0.989090718
0.98858553
0.988069063
0.987541333
0.987002352
0.986452135
0.985890697
0.985318052
0.984734215
0.984139202
0.983533029
0.982915711
0.982287265
0.981647708
0.980997056
0.980335327
0.979662538
0.978978706
0.978283851
0.977577989
0.976861141
0.976133323
0.975394557
0.974644861
0.973884255
0.97311276
0.972330394
0.97153718
0.970733138
0.969918288
0.969092653
0.968256255
0.967409114
0.966551255
0.965682698
0.964803467
0.963913585
0.963013076
0.962101962
0.961180269
0.960248019
0.959305239
0.958351951
0.957388182
0.956413957
0.955429301
0.954434239
0.953428799
0.952413006
0.951386887
0.950350469
0.949303779
0.948246845
0.947179693
0.946102352
0.945014851
0.943917216
0.942809478
0.941691665
0.940563806
0.939425931
0.938278069
0.937120251
0.935952506
0.934774865
0.933587358
0.932390018
0.931182873
0.929965957
0.928739301
0.927502936
0.926256895
0.925001211
0.923735915
0.92246104
0.921176621
0.91988269
0.91857928
0.917266425
0.915944161
0.914612519
0.913271536
0.911921246
0.910561684
0.909192885
0.907814884
0.906427717
0.90503142
0.903626029
0.90221158
0.900788109
0.899355654
0.897914251
0.896463938
0.895004751
0.893536728
0.892059908
0.890574328
0.889080025
0.88757704
0.886065409
0.884545173
0.883016369
0.881479038
0.879933218
0.87837895
0.876816272
0.875245225
0.87366585
0.872078186
0.870482274
0.868878154
0.867265869
0.865645458
0.864016964
0.862380427
0.860735889
0.859083393
0.85742298
0.855754693
0.854078573
0.852394663
0.850703007
0.849003647
0.847296626
0.845581987
0.843859775
0.842130031
0.840392801
0.838648128
0.836896055
0.835136628
0.833369891
0.831595888
0.829814664
0.828026264
0.826230733
0.824428116
0.822618458
0.820801805
0.818978202
0.817147695
0.81531033
0.813466153
0.81161521
0.809757548
0.807893212
0.806022251
0.804144709
0.802260634
0.800370073
0.798473074
0.796569682
0.794659947
0.792743914
0.790821632
0.788893149
0.786958511
0.785017768
0.783070968
0.781118157
0.779159386
0.777194702
0.775224153
0.773247788
0.771265657
0.769277807
0.767284288
0.765285149
0.763280439
0.761270206
0.759254501
0.757233373
0.755206872
0.753175046
0.751137946
0.749095621
0.747048121
0.744995497
0.742937798
0.740875074
0.738807375
0.736734752
0.734657256
0.732574935
0.730487842
0.728396026
0.726299538
0.724198429
0.722092749
0.719982549
0.717867881
0.715748795
0.713625341
0.711497572
0.709365538
0.707229291
0.705088881
0.702944359
0.700795778
0.698643188
0.696486641
0.694326188
0.692161881
0.689993771
0.68782191
0.68564635
0.683467141
0.681284335
0.679097985
0.676908142
0.674714858
0.672518184
0.670318173
0.668114875
0.665908344
0.66369863
0.661485786
0.659269863
0.657050913
0.654828989
0.652604142
0.650376424
0.648145887
0.645912583
0.643676564
0.641437881
0.639196588
0.636952735
0.634706374
0.632457559
0.630206339
0.627952768
0.625696897
0.623438778
0.621178464
0.618916005
0.616651454
0.614384862
0.612116282
0.609845764
0.607573362
0.605299126
0.603023108
0.600745361
0.598465934
0.596184882
0.593902253
0.591618102
0.589332478
0.587045433
0.584757019
0.582467287
0.580176288
0.577884074
0.575590696
0.573296205
0.571000653
0.56870409
0.566406567
0.564108136
0.561808847
0.559508751
0.5572079
0.554906343
0.552604131
0.550301316
0.547997947
0.545694076
0.543389752
0.541085026
0.538779948
0.536474568
0.534168937
0.531863105
0.529557121
0.527251035
0.524944898
0.522638758
0.520332666
0.518026671
0.515720823
0.513415171
0.511109764
0.508804651
0.506499882
0.504195506
0.501891571
0.499588126
0.49728522
0.494982902
0.492681219
0.490380221
0.488079956
0.485780472
0.483481817
0.481184038
0.478887185
0.476591304
0.474296443
0.47200265
0.469709972
0.467418456
0.46512815
0.4628391
0.460551354
0.458264958
0.455979958
0.453696402
0.451414336
0.449133806
0.446854858
0.444577538
0.442301893
0.440027967
0.437755806
0.435485457
0.433216963
0.430950371
0.428685725
0.426423071
0.424162453
0.421903915
0.419647503
0.41739326
0.41514123
0.412891458
0.410643988
0.408398862
0.406156126
0.403915821
0.401677992
0.399442681
0.397209932
0.394979787
0.392752288
0.390527479
0.388305401
0.386086096
0.383869607
0.381655975
0.379445242
0.37723745
0.375032638
0.37283085
0.370632124
0.368436504
0.366244028
0.364054737
0.361868671
0.359685871
0.357506377
0.355330227
0.353157462
0.35098812
0.348822242
0.346659865
0.344501029
0.342345772
0.340194133
0.338046149
0.33590186
0.333761301
0.331624512
0.329491529
0.327362391
0.325237133
0.323115792
0.320998406
0.318885011
0.316775643
0.314670338
0.312569132
0.31047206
0.308379158
0.306290462
0.304206006
0.302125825
0.300049954
0.297978427
0.295911278
0.293848542
0.291790251
0.289736441
0.287687144
0.285642393
0.283602222
0.281566662
0.279535747
0.277509509
0.27548798
0.273471192
0.271459176
0.269451965
0.267449588
0.265452078
0.263459465
0.26147178
0.259489053
0.257511313
0.255538592
0.253570919
0.251608323
0.249650834
0.24769848
0.24575129
0.243809293
0.241872518
0.239940992
0.238014744
0.2360938
0.234178189
0.232267938
0.230363073
0.228463621
0.22656961
0.224681065
0.222798012
0.220920478
0.219048487
0.217182066
0.215321238
0.21346603
0.211616466
0.209772571
0.207934368
0.206101881
0.204275135
0.202454153
0.200638958
0.198829573
0.197026021
0.195228324
0.193436506
0.191650587
0.18987059
0.188096537
0.186328448
0.184566345
0.18281025
0.181060181
0.179316161
0.177578209
0.175846345
0.174120589
0.17240096
0.170687477
0.168980161
0.167279028
0.165584098
0.163895389
0.16221292
0.160536707
0.158866768
0.157203122
0.155545784
0.153894772
0.152250102
0.15061179
0.148979853
0.147354307
0.145735167
0.144122448
0.142516166
0.140916336
0.139322972
0.137736088
0.136155699
0.134581819
0.133014461
0.131453639
0.129899367
0.128351656
0.12681052
0.125275971
0.123748022
0.122226684
0.120711969
0.119203889
0.117702455
0.116207679
0.11471957
0.113238139
0.111763397
0.110295354
0.10883402
0.107379404
0.105931516
0.104490364
0.103055958
0.101628306
0.100207417
0.0987932983
0.0973859587
0.0959854055
0.0945916463
0.0932046881
0.0918245381
0.0904512029
0.0890846891
0.0877250028
0.0863721503
0.0850261372
0.0836869692
0.0823546515
0.0810291892
0.0797105873
0.0783988504
0.0770939828
0.0757959888
0.0745048722
0.0732206367
0.0719432859
0.070672823
0.069409251
0.0681525726
0.0669027904
0.0656599068
0.0644239238
0.0631948433
0.0619726669
0.0607573961
0.059549032
0.0583475756
0.0571530276
0.0559653885
0.0547846587
0.0536108381
0.0524439266
0.0512839238
0.0501308291
0.0489846417
0.0478453605
0.0467129843
0.0455875115
0.0444689405
0.0433572693
0.0422524957
0.0411546175
0.0400636319
0.0389795363
0.0379023276
0.0368320026
0.0357685578
0.0347119895
0.033662294
0.0326194671
0.0315835046
0.0305544018
0.0295321542
0.0285167568
0.0275082045
0.0265064918
0.0255116134
0.0245235634
0.0235423358
0.0225679246
0.0216003233
0.0206395254
0.0196855241
0.0187383124
0.0177978832
0.016864229
0.0159373424
0.0150172155
0.0141038403
0.0131972088
0.0122973125
0.0114041429
0.0105176913
0.00963794859
0.00876490576
0.00789855346
0.00703888216
0.00618588216
0.00533954356
0.00449985627
0.00366681003
0.00284039436
0.00202059863
0.001207412
0.000400823472
0.00039917816
0.00119260427
0.00197946642
0.00275977634
0.00353354594
0.00430078734
0.00506151278
0.00581573473
0.0065634658
0.00730471879
0.00803950667
0.00876784257
0.00948973982
0.0102052119
0.0109142724
0.0116169353
0.0123132144
0.0130031239
0.0136866782
0.0143638918
0.0150347792
0.0156993552
0.016357635
0.0170096335
0.017655366
0.0182948481
0.0189280952
0.0195551232
0.020175948
0.0207905856
0.0213990523
0.0220013643
0.0225975383
0.0231875909
0.0237715388
0.0243493992
0.024921189
0.0254869256
0.0260466262
0.0266003086
0.0271479902
0.0276896891
0.028225423
0.0287552102
0.0292790688
0.0297970172
0.0303090739
0.0308152576
0.031315587
0.031810081
0.0322987587
0.0327816392
0.0332587419
0.033730086
0.0341956912
0.0346555771
0.0351097635
0.0355582704
0.0360011177
0.0364383256
0.0368699143
0.0372959043
0.0377163161
0.0381311702
0.0385404875
0.0389442886
0.0393425947
0.0397354267
0.0401228059
0.0405047535
0.0408812908
0.0412524395
0.0416182211
0.0419786572
0.0423337697
0.0426835806
0.0430281117
0.0433673852
0.0437014233
0.0440302483
0.0443538826
0.0446723486
0.0449856689
0.0452938663
0.0455969633
0.045894983
0.0461879481
0.0464758818
0.0467588071
0.0470367472
0.0473097254
0.047577765
0.0478408895
0.0480991223
0.048352487
0.0486010073
0.048844707
0.0490836097
0.0493177395
0.0495471203
0.049771776
0.0499917308
0.0502070089
0.0504176344
0.0506236316
0.050825025
0.0510218388
0.0512140977
0.0514018261
0.0515850486
0.0517637899
0.0519380747
0.0521079278
0.0522733739
0.052434438
0.052591145
0.0527435198
0.0528915875
0.0530353732
0.053174902
0.053310199
0.0534412894
0.0535681986
0.0536909517
0.0538095742
0.0539240914
0.0540345287
0.0541409116
0.0542432656
0.0543416162
0.0544359888
0.0545264093
0.054612903
0.0546954957
0.0547742132
0.0548490809
0.0549201248
0.0549873706
0.0550508439
0.0551105707
0.0551665768
0.055218888
0.0552675301
0.0553125291
0.0553539108
0.0553917012
0.0554259261
0.0554566116
