# Pulseq sequence file
# Created by PyPulseq

[VERSION]
major 1
minor 4
revision 0

[DEFINITIONS]
AdcRasterTime 1e-07 
BlockDurationRaster 1e-05 
FOV 0.22 0.22 0.004 
GradientRasterTime 1e-05 
Name epi 
RadiofrequencyRasterTime 1e-06 
TotalDuration 0.06969 

# Format of blocks:
# NUM DUR RF  GX  GY  GZ  ADC  EXT
[BLOCKS]
  1 513   1   0   1   0  0  0
  2 1571   2   0   0   2  0  0
  3 268   3   0   0   3  0  0
  4  63   0   4   5   6  0  0
  5  70   0   7   0   0  1  0
  6   6   0   0   8   0  0  0
  7  70   0   9   0   0  1  0
  8   6   0   0   8   0  0  0
  9  70   0   7   0   0  1  0
 10   6   0   0   8   0  0  0
 11  70   0   9   0   0  1  0
 12   6   0   0   8   0  0  0
 13  70   0   7   0   0  1  0
 14   6   0   0   8   0  0  0
 15  70   0   9   0   0  1  0
 16   6   0   0   8   0  0  0
 17  70   0   7   0   0  1  0
 18   6   0   0   8   0  0  0
 19  70   0   9   0   0  1  0
 20   6   0   0   8   0  0  0
 21  70   0   7   0   0  1  0
 22   6   0   0   8   0  0  0
 23  70   0   9   0   0  1  0
 24   6   0   0   8   0  0  0
 25  70   0   7   0   0  1  0
 26   6   0   0   8   0  0  0
 27  70   0   9   0   0  1  0
 28   6   0   0   8   0  0  0
 29  70   0   7   0   0  1  0
 30   6   0   0   8   0  0  0
 31  70   0   9   0   0  1  0
 32   6   0   0   8   0  0  0
 33  70   0   7   0   0  1  0
 34   6   0   0   8   0  0  0
 35  70   0   9   0   0  1  0
 36   6   0   0   8   0  0  0
 37  70   0   7   0   0  1  0
 38   6   0   0   8   0  0  0
 39  70   0   9   0   0  1  0
 40   6   0   0   8   0  0  0
 41  70   0   7   0   0  1  0
 42   6   0   0   8   0  0  0
 43  70   0   9   0   0  1  0
 44   6   0   0   8   0  0  0
 45  70   0   7   0   0  1  0
 46   6   0   0   8   0  0  0
 47  70   0   9   0   0  1  0
 48   6   0   0   8   0  0  0
 49  70   0   7   0   0  1  0
 50   6   0   0   8   0  0  0
 51  70   0   9   0   0  1  0
 52   6   0   0   8   0  0  0
 53  70   0   7   0   0  1  0
 54   6   0   0   8   0  0  0
 55  70   0   9   0   0  1  0
 56   6   0   0   8   0  0  0
 57  70   0   7   0   0  1  0
 58   6   0   0   8   0  0  0
 59  70   0   9   0   0  1  0
 60   6   0   0   8   0  0  0
 61  70   0   7   0   0  1  0
 62   6   0   0   8   0  0  0
 63  70   0   9   0   0  1  0
 64   6   0   0   8   0  0  0
 65  70   0   7   0   0  1  0
 66   6   0   0   8   0  0  0
 67  70   0   9   0   0  1  0
 68   6   0   0   8   0  0  0
 69  70   0   7   0   0  1  0
 70   6   0   0   8   0  0  0
 71  70   0   9   0   0  1  0
 72   6   0   0   8   0  0  0
 73  70   0   7   0   0  1  0
 74   6   0   0   8   0  0  0
 75  70   0   9   0   0  1  0
 76   6   0   0   8   0  0  0
 77  70   0   7   0   0  1  0
 78   6   0   0   8   0  0  0
 79  70   0   9   0   0  1  0
 80   6   0   0   8   0  0  0
 81  70   0   7   0   0  1  0
 82   6   0   0   8   0  0  0
 83  70   0   9   0   0  1  0
 84   6   0   0   8   0  0  0
 85  70   0   7   0   0  1  0
 86   6   0   0   8   0  0  0
 87  70   0   9   0   0  1  0
 88   6   0   0   8   0  0  0
 89  70   0   7   0   0  1  0
 90   6   0   0   8   0  0  0
 91  70   0   9   0   0  1  0
 92   6   0   0   8   0  0  0
 93  70   0   7   0   0  1  0
 94   6   0   0   8   0  0  0
 95  70   0   9   0   0  1  0
 96   6   0   0   8   0  0  0
 97  70   0   7   0   0  1  0
 98   6   0   0   8   0  0  0
 99  70   0   9   0   0  1  0
100   6   0   0   8   0  0  0
101  70   0   7   0   0  1  0
102   6   0   0   8   0  0  0
103  70   0   9   0   0  1  0
104   6   0   0   8   0  0  0
105  70   0   7   0   0  1  0
106   6   0   0   8   0  0  0
107  70   0   9   0   0  1  0
108   6   0   0   8   0  0  0
109  70   0   7   0   0  1  0
110   6   0   0   8   0  0  0
111  70   0   9   0   0  1  0
112   6   0   0   8   0  0  0
113  70   0   7   0   0  1  0
114   6   0   0   8   0  0  0
115  70   0   9   0   0  1  0
116   6   0   0   8   0  0  0
117  70   0   7   0   0  1  0
118   6   0   0   8   0  0  0
119  70   0   9   0   0  1  0
120   6   0   0   8   0  0  0
121  70   0   7   0   0  1  0
122   6   0   0   8   0  0  0
123  70   0   9   0   0  1  0

# Format of RF events:
# id amplitude mag_id phase_id time_shape_id delay freq phase
# ..        Hz   ....     ....          ....    us   Hz   rad
[RF]
1      983.803 1 2 0 100 0 0
2      129.712 3 4 0 100 -424.504 0
3      394.982 5 6 0 100 0 0

# Format of trapezoid gradients:
# id amplitude rise flat fall delay
# ..      Hz/m   us   us   us    us
[TRAP]
 1       133333  30 5000  30  70
 2   1.3624e+06 250 7090 250 8120
 3       400000  80 2500  80  20
 4      -372475 180  270 180   0
 5       280464 160  310 160   0
 6 -1.35789e+06 250  130 250   0
 7       568182 110  480 110   0
 8      -151515  30    0  30   0
 9      -568182 110  480 110   0

# Format of ADC events:
# id num dwell delay freq phase
# ..  ..    ns    us   Hz   rad
[ADC]
1 60 8000 110 0 0

# Sequence Shapes
[SHAPES]

shape_id 1
num_samples 5000
2.09983268e-13
1.67091373e-11
1.26546014e-10
4.76724285e-10
1.27629346e-09
2.78770135e-09
5.31769879e-09
9.20787628e-09
1.48249149e-08
2.25506357e-08
3.27719331e-08
4.58706788e-08
6.22136833e-08
8.21428019e-08
1.05965271e-07
1.3394436e-07
1.66290421e-07
2.03152421e-07
2.44610028e-07
2.90666335e-07
3.41241282e-07
3.96165858e-07
4.55177132e-07
5.17914174e-07
5.83914925e-07
6.52614056e-07
7.23341854e-07
7.95324176e-07
8.67683491e-07
9.39441038e-07
1.0095201e-06
1.07675041e-06
1.1398737e-06
1.19755033e-06
1.24836704e-06
1.29084581e-06
1.32345367e-06
1.34461363e-06
1.35271644e-06
1.34613333e-06
1.32322959e-06
1.28237884e-06
1.22197805e-06
1.14046318e-06
1.03632523e-06
9.08126886e-07
7.54519301e-07
5.74259229e-07
3.66226201e-07
1.29439718e-07
1.36923691e-07
4.33513644e-07
7.60789441e-07
1.1190041e-06
1.50818898e-06
1.92813916e-06
2.37839969e-06
2.85825273e-06
3.36670595e-06
3.90248203e-06
4.46400949e-06
5.04941508e-06
5.65651763e-06
6.28282357e-06
6.92552428e-06
7.58149517e-06
8.24729682e-06
8.91917802e-06
9.59308098e-06
1.02646486e-05
1.09292339e-05
1.15819119e-05
1.22174935e-05
1.28305415e-05
1.34153895e-05
1.39661627e-05
1.44768005e-05
1.49410825e-05
1.53526557e-05
1.57050638e-05
1.59917799e-05
1.62062396e-05
1.63418768e-05
1.63921615e-05
1.63506392e-05
1.62109713e-05
1.59669778e-05
1.56126812e-05
1.51423508e-05
1.45505489e-05
1.38321777e-05
1.29825258e-05
1.19973167e-05
1.08727567e-05
9.60558228e-06
8.19310865e-06
6.63327662e-06
4.92469955e-06
3.06670912e-06
1.05940006e-06
1.09632649e-06
3.39872129e-06
5.84514702e-06
8.43204057e-06
1.11548775e-05
1.40081393e-05
1.69852829e-05
2.00787143e-05
2.32797643e-05
2.65786681e-05
2.99645493e-05
3.34254067e-05
3.6948106e-05
4.0518375e-05
4.41208045e-05
4.77388523e-05
5.13548531e-05
5.49500325e-05
5.85045267e-05
6.19974065e-05
6.54067071e-05
6.87094628e-05
7.18817467e-05
7.48987168e-05
7.77346655e-05
8.03630763e-05
8.27566843e-05
8.48875427e-05
8.67270938e-05
8.82462458e-05
8.94154528e-05
9.02048019e-05
9.05841022e-05
9.05229805e-05
8.99909791e-05
8.89576591e-05
8.73927062e-05
8.526604e-05
8.25479274e-05
7.92090968e-05
7.52208568e-05
7.05552149e-05
6.51849997e-05
5.90839829e-05
5.2227003e-05
4.45900893e-05
3.61505855e-05
2.68872736e-05
1.6780496e-05
5.81227755e-06
6.03355583e-06
1.87712593e-05
3.24130551e-05
4.69690209e-05
6.24469824e-05
7.88524105e-05
9.61883217e-05
0.000114455185
0.000133650835
0.000153770388
0.000174806167
0.000196747636
0.000219581334
0.000243290826
0.000267856657
0.000293256311
0.00031946419
0.000346451589
0.000374186693
0.000402634571
0.000431757191
0.000461513441
0.000491859156
0.000522747166
0.000554127343
0.000585946667
0.000618149301
0.000650676674
0.000683467578
0.000716458276
0.000749582616
0.000782772164
0.000815956337
0.000849062559
0.000882016411
0.000914741809
0.000947161174
0.000979195622
0.00101076516
0.0010417889
0.00107218524
0.00110187212
0.00113076722
0.00115878821
0.00118585298
0.00121187987
0.00123678795
0.00126049722
0.0012829289
0.00130400569
0.00132365199
0.00134179419
0.0013583609
0.00137328322
0.00138649501
0.00139793309
0.00140753754
0.00141525191
0.00142102346
0.00142480339
0.0014265471
0.00142621433
0.00142376944
0.00141918156
0.0014124248
0.00140347841
0.00139232697
0.00137896048
0.00136337458
0.00134557059
0.00132555569
0.00130334295
0.00127895146
0.00125240634
0.00122373881
0.00119298621
0.00116019202
0.00112540582
0.00108868326
0.00105008604
0.00100968182
0.000967544137
0.000923752289
0.000878391214
0.000831551346
0.000783328443
0.000733823406
0.000683142072
0.000631394992
0.00057869719
0.000525167902
0.000470930303
0.000416111209
0.000360840771
0.000305252147
0.000249481162
0.000193665955
0.000137946609
8.24647738e-05
2.73632717e-05
2.72143025e-05
8.11239934e-05
0.000134221904
0.000186364622
0.000237409654
0.000287215857
0.000335643886
0.000382556629
0.000427819656
0.000471301657
0.000512874883
0.000552415584
0.00058980444
0.000624926985
0.000657674027
0.000687942057
0.000715633643
0.000740657822
0.000762930465
0.000782374644
0.000798920964
0.000812507895
0.000823082073
0.000830598586
0.000835021239
0.000836322794
0.000834485191
0.000829499736
0.000821367272
0.000810098319
0.00079571319
0.000778242069
0.000757725072
0.000734212273
0.000707763698
0.000678449286
0.000646348831
0.000611551875
0.000574157581
0.000534274572
0.000492020734
0.000447522992
0.000400917047
0.000352347093
0.000301965488
0.000249932409
0.000196415463
0.000141589279
8.56350658e-05
2.87401419e-05
2.8902559e-05
8.70950111e-05
0.000145634643
0.000204314911
0.000262925886
0.000321254874
0.000379087046
0.000436206089
0.000492394873
0.000547436135
0.000601113167
0.000653210526
0.000703514747
0.000751815057
0.000797904106
0.00084157869
0.00088264048
0.000920896745
0.000956161077
0.0009882541
0.00101700418
0.00104224813
0.00106383187
0.00108161111
0.00109545199
0.00110523173
0.00111083921
0.00111217557
0.00110915477
0.00110170408
0.00108976464
0.00107329188
0.00105225595
0.00102664216
0.000996451254
0.000961699815
0.000922420478
0.000878662186
0.000830490373
0.000777987105
0.000721251175
0.000660398151
0.000595560371
0.000526886895
0.000454543402
0.000378712035
0.0002995912
0.000217395312
0.000132354482
4.47141656e-05
4.526525e-05
0.000137308907
0.000231127985
0.000326420266
0.000422870741
0.000520152268
0.000617926277
0.000715843521
0.000813544871
0.000910662147
0.00100681901
0.00110163185
0.00119471078
0.00128566059
0.00137408178
0.00145957164
0.00154172525
0.00162013669
0.00169440007
0.00176411075
0.00182886645
0.00188826844
0.00194192275
0.00198944133
0.00203044326
0.00206455597
0.00209141637
0.00211067212
0.00212198275
0.00212502084
0.00211947318
0.00210504188
0.00208144551
0.00204842012
0.00200572035
0.0019531204
0.00189041502
0.00181742045
0.00173397532
0.00163994147
0.00153520476
0.00141967585
0.00129329081
0.00115601181
0.0010078277
0.000848754442
0.000678835636
0.000498142839
0.000306775885
0.000104863119
0.000107438447
0.000329943049
0.000562436163
0.00080467457
0.00105638651
0.00131727188
0.00158700259
0.00186522287
0.00215154981
0.00244557383
0.00274685935
0.00305494546
0.00336934667
0.00368955383
0.00401503497
0.00434523636
0.00467958351
0.00501748239
0.00535832056
0.00570146847
0.00604628079
0.00639209777
0.00673824674
0.00708404354
0.00742879412
0.0077717961
0.00811234042
0.00844971302
0.00878319652
0.00911207197
0.00943562064
0.00975312574
0.0100638743
0.0103671589
0.0106622797
0.0109485457
0.0112252774
0.0114918079
0.0117474851
0.0119916733
0.0122237549
0.0124431325
0.0126492302
0.0128414953
0.0130194002
0.0131824438
0.0133301529
0.0134620841
0.0135778246
0.013676994
0.0137592454
0.0138242666
0.0138717812
0.01390155
0.0139133712
0.013907082
0.0138825591
0.0138397191
0.0137785196
0.0136989595
0.0136010789
0.0134849604
0.0133507281
0.0131985485
0.0130286302
0.0128412237
0.012636621
0.0124151555
0.0121772014
0.0119231731
0.0116535245
0.011368748
0.0110693739
0.0107559692
0.0104291363
0.0100895121
0.00973776648
0.0093746007
0.00900074616
0.00861696262
0.0082240365
0.00782277909
0.00741402468
0.00699862862
0.00657746524
0.00615142584
0.00572141647
0.00528835576
0.00485317265
0.00441680409
0.0039801927
0.00354428439
0.00311002597
0.0026783627
0.0022502359
0.00182658045
0.0014083224
0.000996376495
0.000591643748
0.000195009051
0.000192661225
0.000570521573
0.00093774967
0.00129354863
0.00163714925
0.00196781212
0.00228482975
0.00258752859
0.00287527096
0.00314745691
0.003403526
0.00364295899
0.00386527939
0.00407005495
0.00425689902
0.00442547182
0.00457548153
0.00470668533
0.00481889028
0.00491195404
0.00498578553
0.00504034542
0.0050756464
0.00509175349
0.00508878401
0.00506690757
0.00502634579
0.00496737199
0.00489031061
0.00479553661
0.00468347463
0.00455459807
0.00440942799
0.00424853187
0.00407252229
0.00388205539
0.00367782927
0.0034605822
0.00323109076
0.00299016785
0.00273866056
0.00247744791
0.00220743857
0.0019295684
0.00164479791
0.00135410967
0.00105850561
0.000759004219
0.000456637746
0.000152449277
0.000152510205
0.000457184822
0.000760516832
0.00106144969
0.00135893112
0.00165191624
0.00193937062
0.0022202734
0.00249362038
0.00275842705
0.00301373164
0.00325859808
0.003492119
0.00371341854
0.00392165521
0.00411602467
0.0042957623
0.00446014589
0.00460849802
0.0047401885
0.00485463661
0.00495131323
0.00502974288
0.00508950558
0.00513023862
0.00515163813
0.00515346056
0.00513552393
0.005097709
0.00503996022
0.00496228653
0.00486476195
0.00474752609
0.00461078436
0.00445480806
0.00427993433
0.00408656583
0.00387517025
0.00364627971
0.00340048989
0.00313845902
0.00286090665
0.00256861231
0.00226241387
0.00194320588
0.00161193757
0.00126961083
0.000917277932
0.000556039091
0.000187039938
0.000188531223
0.00056944627
0.000954440267
0.00134221459
0.00173144017
0.0021207609
0.00250879704
0.00289414885
0.00327540025
0.00365112251
0.00401987811
0.0043802246
0.00473071853
0.00506991942
0.00539639372
0.00570871889
0.00600548737
0.00628531062
0.00654682317
0.00678868656
0.00700959331
0.00720827084
0.00738348533
0.00753404548
0.00765880627
0.00775667251
0.00782660245
0.00786761112
0.00787877368
0.00785922855
0.00780818049
0.00772490343
0.00760874323
0.00745912024
0.00727553168
0.00705755386
0.0068048442
0.00651714307
0.00619427538
0.00583615206
0.0054427712
0.00501421909
0.00455067097
0.0040523916
0.00351973552
0.00295314718
0.00235316079
0.00172039992
0.00105557688
0.000359491888
0.000366968031
0.00112283037
0.0019070387
0.00271845442
0.00355585882
0.00441795527
0.00530337169
0.00621066321
0.00713831506
0.00808474563
0.00904830974
0.0100273021
0.0110199611
0.0120244723
0.0130389726
0.0140615545
0.0150902703
0.0161231363
0.0171581375
0.0181932325
0.0192263577
0.0202554327
0.0212783648
0.0222930543
0.0232973994
0.0242893011
0.0252666688
0.0262274249
0.0271695101
0.0280908887
0.0289895537
0.0298635312
0.0307108864
0.0315297278
0.0323182123
0.0330745499
0.0337970084
0.0344839181
0.0351336758
0.0357447495
0.0363156822
0.0368450962
0.0373316963
0.0377742741
0.0381717108
0.0385229808
0.0388271543
0.0390834003
0.039290989
0.0394492942
0.0395577951
0.0396160781
0.0396238387
0.039580882
0.0394871244
0.0393425937
0.03914743
0.0389018856
0.0386063246
0.0382612231
0.0378671678
0.0374248556
0.0369350918
0.0363987889
0.0358169647
0.03519074
0.0345213366
0.0338100743
0.0330583681
0.0322677253
0.0314397417
0.0305760982
0.0296785572
0.0287489578
0.0277892125
0.0268013017
0.02578727
0.0247492204
0.0236893101
0.022609745
0.0215127741
0.0204006848
0.0192757966
0.018140456
0.0169970304
0.0158479026
0.0146954648
0.0135421128
0.0123902398
0.011242231
0.0101004573
0.0089672695
0.00784499236
0.00673591903
0.00564230511
0.00456636311
0.00351025684
0.00247609599
0.00146593087
0.000481747177
0.000474538982
0.00140108592
0.00229613102
0.00315799523
0.00398508725
0.00477590763
0.00552905249
0.00624321712
0.00691719929
0.00754990223
0.00814033746
0.00868762723
0.00919100674
0.00964982604
0.0100635516
0.0104317678
0.0107541776
0.0110306034
0.0112609876
0.0114453922
0.0115839989
0.0116771086
0.0117251398
0.0117286284
0.0116882254
0.0116046953
0.011478914
0.0113118662
0.0111046429
0.0108584383
0.0105745462
0.0102543567
0.00989935233
0.00951110387
0.00909126598
0.00864157268
0.0081638325
0.00765992348
0.00713178796
0.00658142717
0.00601089568
0.00542229567
0.00481777107
0.00419950162
0.00356969669
0.0029305892
0.0022844293
0.00163347804
0.000980001083
0.000326262246
0.000325482847
0.000972993163
0.00161404861
0.00224645634
0.00286805702
0.00347673097
0.00407040428
0.00464705472
0.00520471763
0.00574149154
0.00625554379
0.00674511578
0.0072085282
0.00764418598
0.00805058298
0.00842630653
0.00877004168
0.00908057518
0.00935679921
0.00959771484
0.00980243516
0.00997018815
0.0101003192
0.0101922934
0.0102456973
0.0102602406
0.0102357574
0.010172207
0.0100696746
0.00992837113
0.00974863368
0.00953092453
0.00927583051
0.00898406178
0.0086564503
0.00829394794
0.00789762426
0.007468664
0.00700836415
0.0065181308
0.0059994756
0.00545401199
0.00488345104
0.00428959706
0.003674343
0.00303966545
0.00238761947
0.00172033322
0.00104000228
0.000348883826
0.000350709433
0.00105641543
0.00176582916
0.00247650916
0.00318598417
0.00389175992
0.00459132592
0.00528216243
0.00596174743
0.00662756358
0.00727710532
0.00790788586
0.0085174442
0.00910335207
0.00966322089
0.0101947085
0.0106955262
0.0111634447
0.0115963016
0.0119920067
0.0123485489
0.0126640019
0.01293653
0.0131643937
0.0133459551
0.0134796827
0.0135641565
0.0135980727
0.0135802474
0.013509621
0.0133852618
0.0132063692
0.0129722766
0.0126824543
0.0123365114
0.0119341983
0.0114754076
0.0109601758
0.0103886838
0.00976125767
0.00907836832
0.00834063144
0.00754880671
0.00670379677
0.00580664567
0.00485853712
0.00386079221
0.0028148669
0.001722349
0.000584954934
0.000595473909
0.00181697518
0.00307746987
0.00437476692
0.00570656818
0.00707047364
0.0084639869
0.00988452099
0.0113294044
0.0127958873
0.0142811482
0.0157823004
0.0172963989
0.0188204477
0.0203514068
0.0218861997
0.0234217206
0.0249548422
0.0264824231
0.0280013158
0.029508374
0.0310004607
0.0324744559
0.0339272639
0.0353558216
0.0367571053
0.0381281391
0.0394660016
0.0407678335
0.0420308446
0.0432523208
0.0444296311
0.0455602338
0.0466416832
0.0476716356
0.0486478551
0.0495682194
0.0504307251
0.0512334926
0.0519747711
0.0526529427
0.0532665267
0.0538141832
0.0542947167
0.0547070789
0.0550503715
0.0553238482
0.0555269169
0.0556591412
0.0557202411
0.0557100942
0.0556287356
0.0554763582
0.0552533117
0.0549601023
0.0545973909
0.0541659915
0.0536668696
0.0531011391
0.0524700598
0.0517750342
0.051017604
0.0501994457
0.0493223672
0.0483883023
0.0473993066
0.0463575516
0.0452653198
0.0441249985
0.0429390739
0.041710125
0.0404408168
0.0391338937
0.0377921728
0.0364185365
0.0350159253
0.0335873308
0.0321357876
0.0306643663
0.0291761655
0.0276743042
0.0261619139
0.024642131
0.0231180891
0.0215929109
0.020069701
0.0185515378
0.0170414664
0.015542491
0.0140575673
0.0125895958
0.0111414148
0.00971579301
0.00831542377
0.00694291803
0.00560079851
0.00429149371
0.00301733228
0.00178053769
0.00058322317
0.000572613045
0.00168509214
0.00275245881
0.00377308502
0.00474547342
0.00566826036
0.0065402186
0.0073602596
0.00812743545
0.00884094041
0.00950011208
0.0101044322
0.0106535269
0.0111471668
0.0115852669
0.011967885
0.0122952215
0.0125676172
0.0127855516
0.0129496406
0.013060634
0.0131194123
0.0131269835
0.0130844793
0.0129931512
0.0128543665
0.0126696031
0.0124404452
0.0121685777
0.0118557813
0.0115039264
0.0111149676
0.0106909375
0.0102339404
0.00974614613
0.0092297832
0.00868713235
0.00812051966
0.00753230965
0.00692489837
0.00630070634
0.00566217151
0.00501174226
0.00435187025
0.00368500348
0.00301357928
0.00234001737
0.00166671309
0.000996030612
0.0003302964
0.000328207285
0.000977248675
0.00161465261
0.00223830648
0.00284616593
0.00343626037
0.00400669821
0.00455567187
0.00508146251
0.00558244447
0.00605708947
0.0065039704
0.0069217649
0.00730925858
0.00766534792
0.00798904277
0.00827946862
0.00853586841
0.00875760406
0.00894415762
0.00909513205
0.00921025165
0.00928936212
0.0093324303
0.00933954351
0.00931090855
0.00924685036
0.00914781031
0.0090143442
0.00884711988
0.00864691456
0.00841461185
0.00815119841
0.00785776038
0.00753547953
0.00718562904
0.0068095692
0.00640874266
0.00598466964
0.0055389428
0.00507322197
0.00458922869
0.00408874058
0.00357358558
0.00304563599
0.00250680255
0.00195902825
0.00140428218
0.000844553316
0.000281844194
0.000281835341
0.000844474443
0.00140406754
0.00195862055
0.0025061571
0.00304472457
0.00357240016
0.00408729673
0.00458756864
0.00507141732
0.00553709673
0.0059829187
0.00640725795
0.00680855704
0.00718533099
0.00753617171
0.0078597522
0.00815483044
0.00842025306
0.00865495869
0.00885798103
0.00902845164
0.00916560241
0.00926876767
0.00933738607
0.00937100208
0.00936926715
0.00933194059
0.00925889005
0.00915009173
0.00900563026
0.00882569814
0.00861059502
0.0083607265
0.0080766027
0.0077588365
0.00740814144
0.00702532932
0.00661130755
0.00616707618
0.00569372463
0.00519242821
0.00466444435
0.0041111086
0.00353383038
0.00293408857
0.00231342681
0.00167344871
0.00101581283
0.000342227523
0.000345554388
0.00104574099
0.00175650685
0.00247599857
0.00320234053
0.00393364059
0.00466799586
0.00540349849
0.00613824146
0.00687032433
0.00759785897
0.00831897522
0.00903182652
0.00973459538
0.0104254988
0.0111027934
0.011764781
0.0124098131
0.0130362956
0.0136426943
0.0142275382
0.0147894244
0.015327022
0.0158390756
0.016324409
0.0167819284
0.0172106253
0.0176095792
0.0179779601
0.0183150305
0.0186201472
0.0188927628
0.0191324271
0.0193387877
0.0195115907
0.0196506809
0.0197560019
0.0198275955
0.0198656012
0.0198702551
0.0198418887
0.0197809271
0.0196878873
0.019563376
0.0194080871
0.019222799
0.0190083713
0.0187657422
0.0184959244
0.0182000016
0.0178791247
0.0175345075
0.0171674224
0.016779196
0.0163712042
0.0159448677
0.0155016468
0.0150430366
0.0145705617
0.014085771
0.0135902324
0.0130855277
0.0125732469
0.0120549831
0.0115323272
0.0110068623
0.0104801589
0.00995376905
0.00942922189
0.00890801824
0.00839162579
0.00788147434
0.00737895117
0.00688539655
0.00640209948
0.00593029357
0.00547115317
0.0050257897
0.0045952482
0.00418050415
0.0037824605
0.00340194502
0.00303970789
0.00269641955
0.0023726689
0.00206896174
0.00178571951
0.00152327839
0.00128188865
0.00106171433
0.000862833212
0.000685237167
0.000528832725
0.000393442018
0.000278803995
0.000184575956
0.000110335372
5.55820034e-05
1.9740292e-05
2.16203811e-06
2.12933814e-06
1.88577801e-05
5.14998847e-05
9.91487801e-05
0.000160842098
0.000235566077
0.000322259861
0.000419819978
0.000527104974
0.000642940209
0.00076612277
0.000895426503
0.00102960715
0.00116740753
0.00130756284
0.00144880595
0.00158987269
0.00172950724
0.00186646743
0.00199952999
0.00212749579
0.00224919501
0.00236349216
0.00246929108
0.00256553967
0.00265123467
0.00272542606
0.00278722142
0.00283579008
0.00287036696
0.00289025627
0.00289483497
0.00288355585
0.00285595052
0.00281163191
0.00275029667
0.00267172711
0.00257579288
0.00246245237
0.00233175366
0.00218383526
0.00201892641
0.00183734705
0.00163950749
0.00142590763
0.00119713593
0.000953867927
0.000696864485
0.000426969612
0.000145107999
0.000147717821
0.000450430635
0.000761882039
0.00108085625
0.00140607421
0.00173619803
0.00206983565
0.00240554582
0.00274184332
0.00307720444
0.00341007265
0.00373886449
0.00406197568
0.00437778733
0.00468467239
0.00498100214
0.00526515287
0.00553551255
0.0057904877
0.00602851013
0.00624804386
0.00644759194
0.00662570328
0.00678097937
0.00691208103
0.00701773497
0.00709674025
0.00714797458
0.00717040053
0.00716307142
0.00712513708
0.00705584934
0.00695456729
0.00682076219
0.00665402217
0.00645405653
0.00622069973
0.00595391503
0.00565379772
0.00532057802
0.00495462348
0.00455644105
0.00412667867
0.00366612639
0.0031757171
0.00265652674
0.00210977406
0.0015368199
0.000939165966
0.000318453163
0.0003235406
0.00098490308
0.00166359085
0.00235743296
0.00306413501
0.00378128382
0.00450635241
0.00523670559
0.00596960585
0.00670221985
0.00743162514
0.00815481747
0.00886871836
0.00957018309
0.010256009
0.0109229444
0.011567697
0.0121869438
0.0127773403
0.0133355302
0.0138581555
0.0143418667
0.014783333
0.0151792528
0.015526364
0.015821455
0.0160613751
0.0162430451
0.016363468
0.0164197395
0.0164090583
0.0163287367
0.0161762106
0.0159490494
0.0156449659
0.0152618258
0.0147976565
0.0142506567
0.0136192043
0.0129018647
0.0120973988
0.0112047701
0.0102231515
0.00915193177
0.00799072138
0.0067393577
0.00539790983
0.00396668273
0.00244622073
0.000837310512
0.00085901662
0.00264148312
0.00450856421
0.00645848759
0.00848923384
0.0105985375
0.0127838889
0.0150425367
0.0173714907
0.0197675265
0.0222271893
0.0247468
0.0273224605
0.0299500608
0.0326252864
0.035343626
0.0381003806
0.0408906724
0.0437094554
0.0465515248
0.0494115295
0.0522839823
0.0551632734
0.058043682
0.06091939
0.0637844953
0.0666330261
0.0694589547
0.0722562124
0.0750187045
0.0777403256
0.0804149746
0.0830365707
0.0855990687
0.0880964753
0.0905228647
0.0928723943
0.0951393208
0.097318016
0.0994029819
0.101388867
0.103270481
0.105042809
0.106701029
0.108240521
0.109656888
0.110945963
0.112103827
0.113126816
0.114011539
0.114754886
0.11535404
0.115806485
0.116110017
0.116262755
0.116263143
0.116109964
0.11580234
0.115339742
0.114721992
0.113949269
0.113022109
0.111941409
0.110708428
0.109324784
0.107792457
0.106113787
0.104291465
0.102328538
0.100228398
0.0979947786
0.0956317465
0.0931436966
0.0905353412
0.0878117015
0.0849780966
0.0820401327
0.0790036907
0.0758749133
0.0726601912
0.0693661485
0.0659996278
0.0625676736
0.0590775163
0.0555365543
0.0519523368
0.0483325449
0.0446849731
0.0410175096
0.0373381169
0.0336548116
0.029975644
0.0263086775
0.022661968
0.0190435428
0.0154613794
0.011923385
0.008437375
0.00501105243
0.00165198711
0.00163240489
0.00483488144
0.00794839437
0.0109661089
0.0138814229
0.0166879854
0.0193797146
0.0219508153
0.0243957961
0.026709485
0.0288870447
0.0309239878
0.0328161897
0.0345599019
0.0361517634
0.0375888122
0.0388684945
0.0399886739
0.040947639
0.04174411
0.0423772442
0.0428466404
0.0431523419
0.0432948384
0.0432750669
0.0430944109
0.042754699
0.0422582017
0.0416076271
0.0408061156
0.0398572332
0.0387649634
0.0375336984
0.0361682282
0.0346737297
0.0330557538
0.0313202112
0.0294733584
0.0275217809
0.0254723766
0.0233323377
0.0211091318
0.0188104823
0.0164443471
0.0140188977
0.0115424967
0.00902367477
0.00647110705
0.00389358912
0.00130001216
0.00130066218
0.00389942732
0.00648725763
0.00905513458
0.011594073
0.0140951476
0.0165495193
0.0189484618
0.0212833879
0.0235458753
0.0257276933
0.0278208274
0.0298175051
0.0317102207
0.0334917588
0.0351552184
0.0366940359
0.0381020065
0.0393733061
0.0405025116
0.0414846203
0.042315068
0.0429897473
0.0435050226
0.0438577464
0.0440452724
0.044065468
0.0439167263
0.043597975
0.0431086857
0.0424488804
0.0416191374
0.0406205951
0.0394549546
0.0381244809
0.0366320023
0.0349809078
0.0331751442
0.0312192102
0.0291181497
0.0268775435
0.0245034991
0.0220026393
0.0193820891
0.0166494608
0.0138128386
0.0108807604
0.00786219908
0.00476654226
0.00160357061
0.0016165652
0.00488336859
0.00818602248
0.0115134158
0.0148541709
0.0181966725
0.0215290966
0.0248394412
0.0281155574
0.0313451812
0.0345159657
0.0376155144
0.0406314148
0.0435512716
0.0463627415
0.0490535671
0.0516116115
0.0540248928
0.0562816183
0.0583702187
0.0602793823
0.0619980883
0.0635156401
0.0648216979
0.0659063107
0.0667599475
0.0673735278
0.0677384513
0.0678466261
0.0676904968
0.0672630704
0.0665579415
0.0655693167
0.0642920361
0.0627215955
0.0608541648
0.0586866069
0.0562164932
0.053442119
0.0503625156
0.046977462
0.0432874939
0.039293911
0.0349987826
0.0304049511
0.0255160333
0.0203364206
0.0148712759
0.00912652948
0.00310887272
0.00317425066
0.00971465487
0.0165034245
0.0235309291
0.0307868392
0.038260145
0.0459391762
0.0538116245
0.0618645668
0.0700844914
0.0784573251
0.0869684621
0.0956027946
0.104344745
0.113178299
0.122087042
0.131054192
0.140062641
0.149094991
0.158133595
0.167160594
0.176157966
0.185107558
0.193991136
0.202790427
0.211487161
0.220063114
0.228500155
0.236780291
0.244885707
0.252798812
0.260502285
0.267979116
0.275212649
0.282186626
0.288885227
0.295293113
0.301395463
0.307178016
0.312627106
0.317729701
0.322473438
0.326846652
0.330838417
0.334438568
0.337637735
0.340427368
0.342799764
0.344748088
0.346266394
0.347349648
0.347993741
0.348195504
0.347952722
0.347264146
0.346129495
0.344549467
0.342525741
0.340060974
0.337158803
0.333823841
0.330061668
0.325878823
0.321282791
0.316281992
0.310885762
0.305104336
0.298948825
0.292431195
0.285564238
0.278361549
0.270837492
0.26300717
0.254886389
0.246491627
0.23783999
0.228949177
0.219837438
0.210523529
0.201026673
0.191366509
0.18156305
0.171636631
0.161607866
0.151497592
0.141326823
0.131116698
0.120888428
0.110663247
0.100462358
0.0903068815
0.0802178025
0.07021592
0.0603217945
0.050555697
0.0409375584
0.0314869194
0.0222228818
0.0131640599
0.00432853417
0.00426619533
0.0126032527
0.0206664296
0.0284402264
0.0359098918
0.0430614609
0.0498817913
0.0563585963
0.0624804777
0.0682369545
0.0736184908
0.0786165207
0.0832234705
0.087432779
0.0912389145
0.0946373901
0.0976247754
0.100198706
0.102357891
0.104102113
0.105432236
0.106350197
0.106859005
0.106962732
0.106666502
0.105976483
0.104899863
0.103444838
0.101620587
0.09943725
0.0969059005
0.0940385165
0.0908479486
0.087347886
0.0835528206
0.0794780075
0.0751394248
0.0705537305
0.0657382178
0.0607107682
0.0554898034
0.0500942348
0.0445434129
0.0388570736
0.0330552846
0.0271583902
0.0211869554
0.0151617089
0.00910348558
0.00303316867
0.00302836858
0.00906032141
0.0150420121
0.0209529484
0.0267728814
0.0324818638
0.0380603062
0.0434890343
0.0487493437
0.0538230547
0.0586925653
0.0633409031
0.067751776
0.0719096204
0.0757996486
0.0794078938
0.0827212531
0.0857275283
0.0884154649
0.090774788
0.092796236
0.0944715923
0.0957937131
0.0967565536
0.0973551905
0.0975858423
0.0974458857
0.0969338698
0.096049527
0.0947937799
0.0931687463
0.0911777404
0.0888252702
0.0861170325
0.0830599045
0.0796619317
0.075932313
0.0718813824
0.0675205875
0.0628624651
0.0579206135
0.0527096617
0.0472452361
0.0415439237
0.0356232326
0.0295015505
